Q(Å⁻¹)	Intensity	Error
1.229306904906936814e-03	7.394097004773781956e-01	7.394097004773781713e-03
1.647680690840819338e-03	7.443721816886358367e-01	7.443721816886358401e-03
2.060886139369598382e-03	7.266490345055730549e-01	7.266490345055730965e-03
2.474087570095393016e-03	7.060901837732203035e-01	7.060901837732203555e-03
2.879536790337890000e-03	6.876581107028348905e-01	6.876581107028349391e-03
3.300475155918103278e-03	6.706438894070947399e-01	6.706438894070947815e-03
3.711077318174509868e-03	6.507939645620645086e-01	6.507939645620645398e-03
4.124254669968239681e-03	6.302351138297116462e-01	6.302351138297116254e-03
4.537423981316453941e-03	6.103851889846813039e-01	6.103851889846812970e-03
4.953166670123047496e-03	5.919531159142961130e-01	5.919531159142961407e-03
5.361153099761805166e-03	5.770656722805234118e-01	5.770656722805233944e-03
5.782039802700950082e-03	5.600514509847831501e-01	5.600514509847831501e-03
6.187422692422494055e-03	5.423283038017203683e-01	5.423283038017204065e-03
6.605703681474483710e-03	5.253140825059801067e-01	5.253140825059800754e-03
7.016225893641011083e-03	5.097177129848848853e-01	5.097177129848849166e-03
7.431898139859850413e-03	4.955391952384346488e-01	4.955391952384346696e-03
7.842392360715131489e-03	4.792338998300169628e-01	4.792338998300170114e-03
8.258034642810609463e-03	4.636375303089217415e-01	4.636375303089217657e-03
8.668497671238253183e-03	4.466233090131814798e-01	4.466233090131815214e-03
9.081525379605949119e-03	4.324447912667312988e-01	4.324447912667312745e-03
9.497116638230045094e-03	4.189751994076036379e-01	4.189751994076036136e-03
9.907526876461920234e-03	4.033788298865083610e-01	4.033788298865083680e-03
1.032049905461800837e-02	3.892003121400581800e-01	3.892003121400582077e-03
1.073603199783238794e-02	3.743128685062854233e-01	3.743128685062854181e-03
1.114638224483600545e-02	3.615522025344802826e-01	3.615522025344802999e-03
1.156445287339060227e-02	3.495004624499976065e-01	3.495004624499975943e-03
1.197217851332618363e-02	3.339040929289023296e-01	3.339040929289023487e-03
1.238762236143264861e-02	3.197255751824521486e-01	3.197255751824521451e-03
1.279788142036335404e-02	3.062559833233244322e-01	3.062559833233244409e-03
1.321585587020107123e-02	2.949131691261642763e-01	2.949131691261642780e-03
1.362348452695038604e-02	2.835703549290041203e-01	2.835703549290041151e-03
1.403624664309993143e-02	2.693918371825538838e-01	2.693918371825538682e-03
1.445156089932668649e-02	2.552133194361037027e-01	2.552133194361037079e-03
1.486684662821977435e-02	2.438705052389435191e-01	2.438705052389435451e-03
1.527178644330716949e-02	2.296919874924933103e-01	2.296919874924932981e-03
1.568959237130182482e-02	2.162223956333656494e-01	2.162223956333656372e-03
1.609963066601448681e-02	2.077152849854955186e-01	2.077152849854955151e-03
1.651995220724510396e-02	1.970813966756578550e-01	1.970813966756578516e-03
1.692219183834070204e-02	1.857385824784976991e-01	1.857385824784977104e-03
1.733986902006980080e-02	1.758136200559825557e-01	1.758136200559825679e-03
1.774719980918405132e-02	1.637618799714998796e-01	1.637618799714998840e-03
1.816480773182717334e-02	1.524190657743396959e-01	1.524190657743396994e-03
1.857464687756679375e-02	1.439119551264695929e-01	1.439119551264695989e-03
1.898960479076492250e-02	1.354048444785994620e-01	1.354048444785994551e-03
1.939937116078240681e-02	1.268977338307293312e-01	1.268977338307293330e-03
1.981167697423259766e-02	1.176816972955367080e-01	1.176816972955367115e-03
2.022652071059539633e-02	1.077567348730215646e-01	1.077567348730215690e-03
2.063874822360376587e-02	1.013764018871189665e-01	1.013764018871189665e-03
2.104835945644800352e-02	9.499606890121636837e-02	9.499606890121637488e-04
2.146308173715308701e-02	8.790681002799127786e-02	8.790681002799128393e-04
2.187518613061367051e-02	8.081755115476617346e-02	8.081755115476617129e-04
2.228467262545916899e-02	7.301936639421856279e-02	7.301936639421855932e-04
2.269926617381524264e-02	6.876581107028349737e-02	6.876581107028349824e-04
2.310866551828544280e-02	6.593010752099345839e-02	6.593010752099345752e-04
2.352316920357938948e-02	6.167655219705839298e-02	6.167655219705839645e-04
2.393247820509595419e-02	5.742299687312332757e-02	5.742299687312332453e-04
2.434431496360878536e-02	5.316944154918827603e-02	5.316944154918827430e-04
2.475610426163389263e-02	5.033373799989823011e-02	5.033373799989823358e-04
2.516784529636698076e-02	4.962481211257572383e-02	4.962481211257572340e-04
2.558211018392493943e-02	4.678910856328567791e-02	4.678910856328567726e-04
2.599117936521186736e-02	4.253555323935061250e-02	4.253555323935061076e-04
2.640534307959847143e-02	3.969984969006058045e-02	3.969984969006058089e-04
2.681431074961898933e-02	3.757307202809304081e-02	3.757307202809303951e-04
2.722837006110239225e-02	3.969984969006058045e-02	3.969984969006058089e-04
2.763723303064445636e-02	3.544629436612551504e-02	3.544629436612551439e-04
2.805118471030696933e-02	3.331951670415798233e-02	3.331951670415798385e-04
2.845993979097501472e-02	3.190166492951296284e-02	3.190166492951296349e-04
2.887378061073828800e-02	3.048381315486793988e-02	3.048381315486794313e-04
2.928499452548095211e-02	2.906596138022292386e-02	2.906596138022292278e-04
2.969358179644349463e-02	2.977488726754543361e-02	2.977488726754543296e-04
3.010725027560898909e-02	2.623025783093287794e-02	2.623025783093287664e-04
3.051572169044382624e-02	2.552133194361037166e-02	2.552133194361037188e-04
3.092927124335146868e-02	2.410348016896535217e-02	2.410348016896535152e-04
3.133762361671645763e-02	2.410348016896535217e-02	2.410348016896535152e-04
3.175105101842375793e-02	2.410348016896535217e-02	2.410348016896535152e-04
3.216184845600757181e-02	2.126777661967530625e-02	2.126777661967530538e-04
3.257258319242208738e-02	1.914099895770777701e-02	1.914099895770777755e-04
3.298068793055899256e-02	1.914099895770777701e-02	1.914099895770777755e-04
3.339386135887355278e-02	1.914099895770777701e-02	1.914099895770777755e-04
3.380183750518333391e-02	1.843207307038526727e-02	1.843207307038526737e-04
3.421231384506426970e-02	1.630529540841773803e-02	1.630529540841773955e-04
3.462528833512774212e-02	1.701422129574024777e-02	1.701422129574024702e-04
3.503306562874210911e-02	1.346959185912769558e-02	1.346959185912769612e-04
3.544590346751488180e-02	1.630529540841773803e-02	1.630529540841773955e-04
3.585354421753676746e-02	1.417851774645020532e-02	1.417851774645020630e-04
3.626367906431306881e-02	1.417851774645020532e-02	1.417851774645020630e-04
3.667374321319140373e-02	1.346959185912769558e-02	1.346959185912769612e-04
3.708629809229634089e-02	1.205174008448267609e-02	1.205174008448267576e-04
3.749365621962947454e-02	1.417851774645020532e-02	1.417851774645020630e-04
3.790350347872686182e-02	1.417851774645020532e-02	1.417851774645020630e-04
3.831583769248680937e-02	1.063388830983765312e-02	1.063388830983765269e-04
3.872297551358881013e-02	1.205174008448267609e-02	1.205174008448267576e-04
3.913515859754653631e-02	1.134281419716016460e-02	1.134281419716016423e-04
3.954214557890907422e-02	1.205174008448267609e-02	1.205174008448267576e-04
3.995417431877808928e-02	1.276066597180518583e-02	1.276066597180518594e-04
4.036100728663494230e-02	1.205174008448267609e-02	1.205174008448267576e-04
4.077287846933235621e-02	1.063388830983765312e-02	1.063388830983765269e-04
4.117955425111831380e-02	1.134281419716016460e-02	1.134281419716016423e-04
4.159126466478990647e-02	1.134281419716016460e-02	1.134281419716016423e-04
4.199778008916552757e-02	1.276066597180518583e-02	1.276066597180518594e-04
4.240932652321079133e-02	9.924962422515145113e-03	9.924962422515145222e-05
4.281823383236648545e-02	1.205174008448267609e-02	1.205174008448267576e-04
4.322705766518430276e-02	1.205174008448267609e-02	1.205174008448267576e-04
4.363324286574767064e-02	1.276066597180518583e-02	1.276066597180518594e-04
4.404445171387876001e-02	1.276066597180518583e-02	1.276066597180518594e-04
4.445046705061533182e-02	1.205174008448267609e-02	1.205174008448267576e-04
4.486150229509114351e-02	1.063388830983765312e-02	1.063388830983765269e-04
4.526734460181177505e-02	1.134281419716016460e-02	1.134281419716016423e-04
4.567820303729690917e-02	1.276066597180518583e-02	1.276066597180518594e-04
4.608131806639853556e-02	1.346959185912769558e-02	1.346959185912769612e-04
4.649199705646592934e-02	1.205174008448267609e-02	1.205174008448267576e-04
4.690258427148408238e-02	1.063388830983765312e-02	1.063388830983765269e-04
4.730798016000296174e-02	9.216036535192633633e-03	9.216036535192633687e-05
4.771838255877879770e-02	1.063388830983765312e-02	1.063388830983765269e-04
4.812359434640754025e-02	1.276066597180518583e-02	1.276066597180518594e-04
4.853126110797041648e-02	1.134281419716016460e-02	1.134281419716016423e-04
4.893883325535641066e-02	9.924962422515145113e-03	9.924962422515145222e-05
4.934885642191273042e-02	8.507110647870123887e-03	8.507110647870123508e-05
4.975369052945276260e-02	9.216036535192633633e-03	9.216036535192633687e-05
5.016097406755717220e-02	1.134281419716016460e-02	1.134281419716016423e-04
5.057070441601538985e-02	9.216036535192633633e-03	9.216036535192633687e-05
5.097524697577951458e-02	7.798184760547613274e-03	7.798184760547613328e-05
5.138477811790376215e-02	8.507110647870123887e-03	8.507110647870123508e-05
5.178912236878607800e-02	1.134281419716016460e-02	1.134281419716016423e-04
5.219845111097026757e-02	9.924962422515145113e-03	9.924962422515145222e-05
5.260259389981307432e-02	7.798184760547613274e-03	7.798184760547613328e-05
5.301171705002945267e-02	8.507110647870123887e-03	8.507110647870123508e-05
5.341565522524609200e-02	7.798184760547613274e-03	7.798184760547613328e-05
5.382203007935869310e-02	9.216036535192633633e-03	9.216036535192633687e-05
5.423083886008517318e-02	9.924962422515145113e-03	9.924962422515145222e-05
5.463700240130488911e-02	9.216036535192633633e-03	9.216036535192633687e-05
5.504305942489265413e-02	8.507110647870123887e-03	8.507110647870123508e-05
5.544647228838402858e-02	7.798184760547613274e-03	7.798184760547613328e-05
5.585231458011680888e-02	9.216036535192633633e-03	9.216036535192633687e-05
5.625804798490435105e-02	9.216036535192633633e-03	9.216036535192633687e-05
5.666620651349263404e-02	8.507110647870123887e-03	8.507110647870123508e-05
5.706918496986543299e-02	8.507110647870123887e-03	8.507110647870123508e-05
5.747712037965805459e-02	8.507110647870123887e-03	8.507110647870123508e-05
5.787734420527330947e-02	9.924962422515145113e-03	9.924962422515145222e-05
5.829011802369822581e-02	1.063388830983765312e-02	1.063388830983765269e-04
5.869011750694378554e-02	9.216036535192633633e-03	9.216036535192633687e-05
5.909759713742301912e-02	9.924962422515145113e-03	9.924962422515145222e-05
5.949990041870350382e-02	9.216036535192633633e-03	9.216036535192633687e-05
5.990714739221927182e-02	9.924962422515145113e-03	9.924962422515145222e-05
6.030921933828749942e-02	1.134281419716016460e-02	1.134281419716016423e-04
6.071370282861106304e-02	9.924962422515145113e-03	9.924962422515145222e-05
6.111806795446423496e-02	9.216036535192633633e-03	9.216036535192633687e-05
