Q(Å⁻¹)	Intensity	Error
1.212468814405589373e-03	7.672612148583133340e-01	7.672612148583133306e-03
1.625112041401889466e-03	7.706474317763812865e-01	7.706474317763813142e-03
2.030110573831291846e-03	7.554094556450754450e-01	7.554094556450754311e-03
2.440199441551383231e-03	7.375108805067160933e-01	7.375108805067161384e-03
2.842642223539979321e-03	7.193704327313520386e-01	7.193704327313520455e-03
3.255267812535447402e-03	7.000206217709635803e-01	7.000206217709636046e-03
3.657698854938647680e-03	6.818801739955995256e-01	6.818801739955995117e-03
4.070310798287193887e-03	6.637397262202353598e-01	6.637397262202353321e-03
4.472726962866891039e-03	6.458411510818761192e-01	6.458411510818761261e-03
4.885322042937696035e-03	6.272169580325022142e-01	6.272169580325022593e-03
5.290266984090973706e-03	6.098021281681526018e-01	6.098021281681526538e-03
5.702841915589396994e-03	5.928710435778128396e-01	5.928710435778128222e-03
6.100125531408151502e-03	5.766655768984875197e-01	5.766655768984875648e-03
6.517770462596760364e-03	5.592507470341380182e-01	5.592507470341380460e-03
6.917576589709532875e-03	5.437708982658272516e-01	5.437708982658272759e-03
7.332648182720774913e-03	5.265979410384824533e-01	5.265979410384824706e-03
7.734973365678417256e-03	5.106343469961621695e-01	5.106343469961621868e-03
8.144922502852822502e-03	4.951544982278514029e-01	4.951544982278514168e-03
8.552309445189422779e-03	4.796746494595406363e-01	4.796746494595406467e-03
8.957133703595908034e-03	4.617760743211813956e-01	4.617760743211814407e-03
9.364486617050780254e-03	4.455706076418560757e-01	4.455706076418560965e-03
9.774367056487235847e-03	4.293651409625307558e-01	4.293651409625307523e-03
1.018168254116695245e-02	4.136434195572151751e-01	4.136434195572151820e-03
1.058643264169846498e-02	3.979216981518996499e-01	3.979216981518996984e-03
1.099625316734937491e-02	3.809906135615597766e-01	3.809906135615597801e-03
1.140096145430878963e-02	3.652688921562441959e-01	3.652688921562442098e-03
1.181073804254068396e-02	3.490634254769188760e-01	3.490634254769188656e-03
1.221540135993147945e-02	3.335835767086081649e-01	3.335835767086081823e-03
1.262513081522421109e-02	3.178618553032925842e-01	3.178618553032926120e-03
1.302974600740055243e-02	3.018982612609721339e-01	3.018982612609721547e-03
1.343688062478987262e-02	2.859346672186517391e-01	2.859346672186517408e-03
1.384398904629285769e-02	2.697292005393264192e-01	2.697292005393264400e-03
1.425107047823079634e-02	2.542493517710157080e-01	2.542493517710157132e-03
1.466066812324833338e-02	2.387695030027049969e-01	2.387695030027049865e-03
1.506769301413204455e-02	2.232896542343942581e-01	2.232896542343942598e-03
1.547214490066592049e-02	2.075679328290787051e-01	2.075679328290786895e-03
1.588165387672525394e-02	1.913624661497533852e-01	1.913624661497533887e-03
1.628604501946026226e-02	1.773338532034718085e-01	1.773338532034718102e-03
1.669549089099124639e-02	1.635471128941950458e-01	1.635471128941950536e-03
1.709981813640402623e-02	1.485510093998940184e-01	1.485510093998940141e-03
1.750919771046549611e-02	1.347642690906172835e-01	1.347642690906172792e-03
1.791345790553096340e-02	1.219450193293599854e-01	1.219450193293599837e-03
1.832276798969877454e-02	1.096095148421123711e-01	1.096095148421123754e-03
1.872695798191472555e-02	9.824150090288417958e-02	9.824150090288418478e-04
1.913365365283493935e-02	8.614786905264142092e-02	8.614786905264142005e-04
1.954285351755916111e-02	7.623109093544236381e-02	7.623109093544236685e-04
1.994693229576347676e-02	6.607244018123845097e-02	6.607244018123844837e-04
2.035605469195889833e-02	5.857438843408794421e-02	5.857438843408795028e-04
2.076005538850705587e-02	5.131820932394229318e-02	5.131820932394229578e-04
2.116909712575503963e-02	4.406203021379664214e-02	4.406203021379664127e-04
2.157301659016845966e-02	3.849895956268497427e-02	3.849895956268497318e-04
2.198197447867937526e-02	3.293588891157330639e-02	3.293588891157330509e-04
2.238580956111292999e-02	2.930779935650048088e-02	2.930779935650048326e-04
2.279468041175100601e-02	2.640532771244221560e-02	2.640532771244221387e-04
2.319842796301760032e-02	2.374472870538881647e-02	2.374472870538881788e-04
2.360720858732582098e-02	2.132600233534026613e-02	2.132600233534026547e-04
2.401340403591581407e-02	1.987476651331113175e-02	1.987476651331113349e-04
2.441701438720603884e-02	1.914914860229656804e-02	1.914914860229656750e-04
2.482565369520846679e-02	1.866540332828685658e-02	1.866540332828685593e-04
2.522916864540401816e-02	1.866540332828685658e-02	1.866540332828685593e-04
2.563770975906665486e-02	1.842353069128200085e-02	1.842353069128200150e-04
2.604112616147689907e-02	1.793978541727229287e-02	1.793978541727229265e-04
2.644956589491406773e-02	1.793978541727229287e-02	1.793978541727229265e-04
2.685288060361685006e-02	1.769791278026743714e-02	1.769791278026743822e-04
2.726121577173347757e-02	1.745604014326258141e-02	1.745604014326258108e-04
2.766696138500325183e-02	1.624667695823830624e-02	1.624667695823830624e-04
2.807265306011609216e-02	1.600480432123345051e-02	1.600480432123345181e-04
2.847575494683416558e-02	1.624667695823830624e-02	1.624667695823830624e-04
2.888387143231094592e-02	1.673042223224801769e-02	1.673042223224801780e-04
2.928432783471123305e-02	1.648854959524316197e-02	1.648854959524316338e-04
2.969486456227420426e-02	1.455356849920432308e-02	1.455356849920432254e-04
3.009774105315412771e-02	1.479544113620917534e-02	1.479544113620917696e-04
3.050562612571853377e-02	1.406982322519461162e-02	1.406982322519461097e-04
3.051069264402537021e-02	1.454751965005562919e-02	1.454751965005563038e-04
3.090838520566613692e-02	1.334420531418004791e-02	1.334420531418004769e-04
3.115659705905728799e-02	1.283978709044872497e-02	1.283978709044872638e-04
3.131361729077340728e-02	1.189296949215091527e-02	1.189296949215091570e-04
3.172132045373959180e-02	9.957988396112072912e-03	9.957988396112073509e-05
3.179981514068970505e-02	9.957988396112072912e-03	9.957988396112073509e-05
3.212389752858862274e-02	8.506752574082943746e-03	8.506752574082944234e-05
3.244540841095457789e-02	8.066311238994317012e-03	8.066311238994317392e-05
3.252894410161377703e-02	8.023007300073234024e-03	8.023007300073234024e-05
3.293645820144742997e-02	7.781134663068380031e-03	7.781134663068379597e-05
3.308831022337633404e-02	6.644714719959845563e-03	6.644714719959845346e-05
3.334137674748283153e-02	6.813644115048958852e-03	6.813644115048959177e-05
3.373357961124533871e-02	5.833995938337951416e-03	5.833995938337951416e-05
3.374623029279818359e-02	5.846153567029537673e-03	5.846153567029538080e-05
3.415101804811079139e-02	5.120535656014972223e-03	5.120535656014972087e-05
3.437615246993037943e-02	5.025548077672979501e-03	5.025548077672979420e-05
3.455573922426620481e-02	5.362408293019827084e-03	5.362408293019827192e-05
3.495786415677795689e-02	4.636790382005263368e-03	4.636790382005263233e-05
3.502108524416493868e-02	4.137617983515666162e-03	4.137617983515666568e-05
3.536245023610774113e-02	4.636790382005263368e-03	4.636790382005263233e-05
3.566331647107751079e-02	2.761439883619676208e-03	2.761439883619676221e-05
3.576949538820112240e-02	2.701809285966421878e-03	2.701809285966422054e-05
3.616888720528646517e-02	2.701809285966421878e-03	2.701809285966422054e-05
3.630789990708048476e-02	1.789485714056171777e-03	1.789485714056171872e-05
3.694977683092526971e-02	1.121834952720493364e-03	1.121834952720493412e-05
3.759399821099197042e-02	1.035539956357378524e-03	1.035539956357378625e-05
3.823803342802738897e-02	1.210400870040532388e-03	1.210400870040532334e-05
3.887935478103324988e-02	1.619166642286866062e-03	1.619166642286865926e-05
3.952300886656909956e-02	1.600999274631473681e-03	1.600999274631473857e-05
4.016394425697270704e-02	1.548768092622219853e-03	1.548768092622219921e-05
4.080720451164050050e-02	1.303508629274419562e-03	1.303508629274419528e-05
4.144774129371351507e-02	1.505620594440662107e-03	1.505620594440662188e-05
4.209059502591509100e-02	2.141478462379403473e-03	2.141478462379403595e-05
4.273072056179379186e-02	2.836380275198171000e-03	2.836380275198171176e-05
4.337315508795174662e-02	3.413194198256886205e-03	3.413194198256886070e-05
4.401285674788633917e-02	3.392755909644569207e-03	3.392755909644569018e-05
4.465485939269424331e-02	3.033950398450565179e-03	3.033950398450565395e-05
4.529664090954602790e-02	2.350403190416418785e-03	2.350403190416419002e-05
4.593568265197052469e-02	1.939366497213160711e-03	1.939366497213160765e-05
4.657701327813350972e-02	1.932553734342388595e-03	1.932553734342388528e-05
4.721559959499167097e-02	2.034745177403972285e-03	2.034745177403972434e-05
4.785646667693950473e-02	2.214147933000973865e-03	2.214147933000973906e-05
4.849458496885052788e-02	2.352674111373342751e-03	2.352674111373342968e-05
4.913497586220260532e-02	1.946179260083933044e-03	1.946179260083933003e-05
4.977261353901985680e-02	1.344385206499052908e-03	1.344385206499052955e-05
5.041251560879084909e-02	7.857386510957301918e-04	7.857386510957301308e-06
5.104966008985027670e-02	3.610764321509280493e-04	3.610764321509280543e-06
5.168906071069941099e-02	2.770523567447372290e-04	2.770523567447372341e-06
5.232820537068552658e-02	3.860565626770928716e-04	3.860565626770929123e-06
5.296458598154788616e-02	4.723515590402078209e-04	4.723515590402078683e-06
5.360321026084693963e-02	4.405586656432707200e-04	4.405586656432707302e-06
5.423906625507731588e-02	2.520722262185724066e-04	2.520722262185724185e-06
5.487715755355943026e-02	8.402407540619080673e-05	8.402407540619080969e-07
5.551247638564658915e-02	7.039854966464634462e-05	7.039854966464634462e-07
5.615002211369773955e-02	2.929488034432058065e-04	2.929488034432058031e-06
5.678479124872869155e-02	5.041444524371448133e-04	5.041444524371448370e-06
5.742177882749897183e-02	8.129897025788191973e-04	8.129897025788192515e-06
5.805598574140632268e-02	7.425911529141728798e-04	7.425911529141729069e-06
5.869240260305819828e-02	5.382082667910060431e-04	5.382082667910060261e-06
5.932852882375402176e-02	3.701601159786243483e-04	3.701601159786243432e-06
5.996186837082348453e-02	3.179289339693706288e-04	3.179289339693706187e-06
6.059740503151184871e-02	4.837061638248281404e-04	4.837061638248281235e-06
6.123015108409049501e-02	8.220733864065154963e-04	8.220733864065154557e-06
6.186508564556065376e-02	1.078687454538936052e-03	1.078687454538936019e-05
6.249722571949675731e-02	1.219484553868228687e-03	1.219484553868228708e-05
6.313154565441742028e-02	1.017372588701986142e-03	1.017372588701986217e-05
6.376306727751526737e-02	7.766549672680338927e-04	7.766549672680339266e-06
6.439676007068180497e-02	3.996820884186373202e-04	3.996820884186373032e-06
6.502765078294778234e-02	2.543431471754965356e-04	2.543431471754965542e-06
6.566070393152914630e-02	2.293630166493316319e-04	2.293630166493316540e-06
6.629343193257999922e-02	3.883274836340169464e-04	3.883274836340169633e-06
6.692335229920297335e-02	5.972522116710319868e-04	5.972522116710320308e-06
6.755542191290538068e-02	5.450210296617782673e-04	5.450210296617782639e-06
6.818468026150709127e-02	3.837856417201688511e-04	3.837856417201688612e-06
6.881607901705551200e-02	2.884069615293576028e-04	2.884069615293576163e-06
6.944466293229697995e-02	1.044623640185074931e-04	1.044623640185074914e-06
7.007537837212200749e-02	2.043828861231668299e-05	2.043828861231668437e-07
7.070327545197095664e-02	4.314749818155744074e-05	4.314749818155744095e-07
7.133329513198503891e-02	1.317134155015963902e-04	1.317134155015964004e-06
7.196049298796049210e-02	1.430680202862167911e-04	1.430680202862168038e-06
7.258980447780354062e-02	1.317134155015963902e-04	1.317134155015964004e-06
7.321875650766135335e-02	5.450210296617782809e-05	5.450210296617782851e-07
7.384488161850488730e-02	1.589644669846853347e-05	1.589644669846853464e-07
7.447310682674394833e-02	5.450210296617782809e-05	5.450210296617782851e-07
7.509850179127403047e-02	2.202793328216353600e-04	2.202793328216353651e-06
7.572598778293934685e-02	3.610764321509280493e-04	3.610764321509280543e-06
7.635064026204205212e-02	4.451005075571188695e-04	4.451005075571189170e-06
7.697737465676351976e-02	4.451005075571188695e-04	4.451005075571189170e-06
7.760127232597416325e-02	2.725105148308891337e-04	2.725105148308891320e-06
7.822724275821071882e-02	1.180878897600519552e-04	1.180878897600519671e-06
7.885037330795720278e-02	7.494039157849449414e-05	7.494039157849449965e-07
7.947556742724086465e-02	1.180878897600519552e-04	1.180878897600519671e-06
8.010036798868951091e-02	2.611559100462687057e-04	2.611559100462687074e-06
8.072232403426593539e-02	3.928693255478650959e-04	3.928693255478650654e-06
8.134632977375287621e-02	5.518337925325504916e-04	5.518337925325505018e-06
8.196748798063592523e-02	4.405586656432707200e-04	4.405586656432707302e-06
8.259068658645679628e-02	3.701601159786243483e-04	3.701601159786243432e-06
8.321103469912424777e-02	2.180084118647113124e-04	2.180084118647113141e-06
8.383341387549954338e-02	5.450210296617782809e-05	5.450210296617782851e-07
8.445293965441239004e-02	2.498013052616483251e-05	2.498013052616483145e-07
8.507448712173000527e-02	8.175315444926673197e-05	8.175315444926673747e-07
8.569317834357402519e-02	1.566935460277612126e-04	1.566935460277612159e-06
8.631388183863156205e-02	1.430680202862167911e-04	1.430680202862168038e-06
8.693415791296640882e-02	2.089247280370149862e-04	2.089247280370149828e-06
8.755157357280518582e-02	1.021914430615834048e-04	1.021914430615833980e-06
8.817098729936037604e-02	7.266947062157043293e-05	7.266947062157043802e-07
8.878753790445184646e-02	6.131486583695004559e-05	6.131486583695004517e-07
8.940607706212393146e-02	6.358578679387413390e-05	6.358578679387413856e-07
9.002175044785440394e-02	1.180878897600519552e-04	1.180878897600519671e-06
9.019861425698534607e-02	1.277105059162936219e-04	1.277105059162936160e-06
9.063940283279529886e-02	1.158169688031278669e-04	1.158169688031278737e-06
9.087665589484332507e-02	1.242588706212586548e-04	1.242588706212586505e-06
9.125418685185869572e-02	1.271715735877482678e-04	1.271715735877482771e-06
9.155415495376750812e-02	8.629088237587407033e-05	8.629088237587407287e-07
9.187094027771643134e-02	4.541841913848151550e-05	4.541841913848151847e-07
9.223110738875076042e-02	4.832289413048947911e-05	4.832289413048948462e-07
9.248482280035393022e-02	2.043828861231668299e-05	2.043828861231668437e-07
9.290750915804961430e-02	1.610763137682982637e-05	1.610763137682982732e-07
9.310066509851312733e-02	1.135460478462037888e-05	1.135460478462037962e-07
9.358335622320840264e-02	5.522616472055940663e-05	5.522616472055940494e-07
9.371604636824081014e-02	6.131486583695004559e-05	6.131486583695004517e-07
9.425864454908323975e-02	1.587752235716082721e-04	1.587752235716082839e-06
9.432855303257450807e-02	1.430680202862167911e-04	1.430680202862168038e-06
9.493337010386618258e-02	2.324101098656874628e-04	2.324101098656874764e-06
9.494300494354379616e-02	3.065743291847502008e-04	3.065743291847501941e-06
9.555457985353167649e-02	2.679686729170409299e-04	2.679686729170409452e-06
9.560752885910941967e-02	3.008675432172142300e-04	3.008675432172142418e-06
9.616809028253631153e-02	2.543431471754965356e-04	2.543431471754965542e-06
9.628111678974908549e-02	2.381628353574124352e-04	2.381628353574124470e-06
9.677872137173564038e-02	1.635063088985334639e-04	1.635063088985334749e-06
9.695412987412946326e-02	1.432428647439509470e-04	1.432428647439509605e-06
9.739127821414496344e-02	7.039854966464634462e-05	7.039854966464634462e-07
9.762656409402704905e-02	5.580143726973190116e-05	5.580143726973190624e-07
9.800095343473477771e-02	4.541841913848152058e-06	4.541841913848152376e-08
9.829841543467432441e-02	1.265599608179486261e-05	1.265599608179486187e-07
9.861254460473242722e-02	3.179289339693706695e-05	3.179289339693706928e-07
9.896967988478388989e-02	7.018325099904423718e-05	7.018325099904423760e-07
9.922125192775109459e-02	1.180878897600519552e-04	1.180878897600519671e-06
9.964035343657237642e-02	1.438181372931234686e-04	1.438181372931234618e-06
1.003104320857844262e-01	2.295337471198250444e-04	2.295337471198250546e-06
1.009799118317163819e-01	2.214799314314101211e-04	2.214799314314101211e-06
1.016487886772406007e-01	1.702806745550581626e-04	1.702806745550581617e-06
1.023170586288288109e-01	8.744142747421905938e-05	8.744142747421906488e-07
1.029847176965763556e-01	3.048944510614216917e-05	3.048944510614217192e-07
1.036517618942257579e-01	1.093017843427738242e-05	1.093017843427738311e-07
1.043181872391906878e-01	2.876362745862468898e-05	2.876362745862468919e-07
1.049839897525796234e-01	7.363488629407920433e-05	7.363488629407920306e-07
1.056491654592197349e-01	8.629088237587407033e-05	8.629088237587407287e-07
1.063137103876804351e-01	7.075852354821673170e-05	7.075852354821672832e-07
1.069776205702973049e-01	5.292507452386942853e-05	5.292507452386943150e-07
1.076408920431955879e-01	3.509162549952211859e-05	3.509162549952211880e-07
1.083035208463139915e-01	4.889816667966196686e-05	4.889816667966196474e-07
1.089655030234282646e-01	7.248434119573421528e-05	7.248434119573422163e-07
1.096268346221748458e-01	1.006726961051864199e-04	1.006726961051864148e-06
1.102875116940744554e-01	8.053815688414912508e-05	8.053815688414912338e-07
1.109475302945556185e-01	5.119925687635195174e-05	5.119925687635194877e-07
1.116068864829783541e-01	1.610763137682982637e-05	1.610763137682982732e-07
1.122655763226575037e-01	5.177452942552443948e-06	5.177452942552444213e-08
1.129235958808864210e-01	3.796798824538459121e-05	3.796798824538459354e-07
1.135809412289603276e-01	8.801670002339155390e-05	8.801670002339155559e-07
1.142376084421998506e-01	1.495708627848483868e-04	1.495708627848483901e-06
1.148935935999744334e-01	1.478450451373309032e-04	1.478450451373309074e-06
1.155488927857256792e-01	1.472697725881584087e-04	1.472697725881584061e-06
1.162035020869908036e-01	7.996288433497664410e-05	7.996288433497664326e-07
1.168574175954260053e-01	2.416144706524473956e-05	2.416144706524474231e-07
1.175106354068297110e-01	4.602180393379950271e-06	4.602180393379950191e-08
1.181631516211660154e-01	3.221526275365965274e-05	3.221526275365965465e-07
1.188149623425878848e-01	7.248434119573421528e-05	7.248434119573422163e-07
1.194660636794603742e-01	1.000974235560139118e-04	1.000974235560139135e-06
1.201164517443839980e-01	1.202319627770511931e-04	1.202319627770512049e-06
1.207661226542177668e-01	9.837160590849644180e-05	9.837160590849645196e-07
1.214150725301025163e-01	5.292507452386942853e-05	5.292507452386943150e-07
1.220632974974840690e-01	2.761308236027970332e-05	2.761308236027970247e-07
1.227107936861362020e-01	1.610763137682982637e-05	1.610763137682982732e-07
1.233575572301839895e-01	2.013453922103728127e-05	2.013453922103728085e-07
1.240035842681266182e-01	4.889816667966196686e-05	4.889816667966196474e-07
1.246488709428606872e-01	4.026907844207456254e-05	4.026907844207456169e-07
1.252934134017031076e-01	3.048944510614216917e-05	3.048944510614217192e-07
1.259372077964140690e-01	3.048944510614216917e-05	3.048944510614217192e-07
1.265802502832202026e-01	2.416144706524473956e-05	2.416144706524474231e-07
1.272225370228372565e-01	2.818835490945219445e-05	2.818835490945219318e-07
1.278640641804933420e-01	4.889816667966196686e-05	4.889816667966196474e-07
1.285048279259514981e-01	6.327998040897431643e-05	6.327998040897431728e-07
1.291448244335327844e-01	8.398979217918409223e-05	8.398979217918408884e-07
1.297840498821389854e-01	4.314544118793703516e-05	4.314544118793703643e-07
1.304225004552755918e-01	3.279053530283214727e-05	3.279053530283214536e-07
1.310601723410744768e-01	2.301090196689975135e-06	2.301090196689975096e-08
1.316970617323165726e-01	1.208072353262236978e-05	1.208072353262237115e-07
1.323331648264547689e-01	3.681744314703960216e-05	3.681744314703960153e-07
