Q(Å⁻¹)	Intensity	Error
1.220890385622434892e-03	7.188948390486421536e-01	7.188948390486421536e-03
1.636399751757333871e-03	7.297669796765241523e-01	7.297669796765242009e-03
2.041646483587167531e-03	7.102610803147358931e-01	7.102610803147359035e-03
2.457148589551042244e-03	6.872377236909857912e-01	6.872377236909857877e-03
2.864951441782115360e-03	6.667725178032078981e-01	6.667725178032078877e-03
3.275313522249285667e-03	6.437491611794577961e-01	6.437491611794577719e-03
3.685669217325146952e-03	6.220048799236939097e-01	6.220048799236939374e-03
4.096017727000273757e-03	5.996210609839368599e-01	5.996210609839368322e-03
4.506358251279248515e-03	5.788360862541623852e-01	5.788360862541624269e-03
4.916689990182222803e-03	5.596499557343707076e-01	5.596499557343707215e-03
5.327012143746474686e-03	5.401440563725824484e-01	5.401440563725824241e-03
5.739888326240706606e-03	5.203183881687977186e-01	5.203183881687977082e-03
6.150188836892777310e-03	5.011322576490059300e-01	5.011322576490059161e-03
6.557913093069343315e-03	4.851438155491795134e-01	4.851438155491795239e-03
6.970753087994921784e-03	4.665972227133807770e-01	4.665972227133808291e-03
7.378451134187068855e-03	4.499692429295612528e-01	4.499692429295612528e-03
7.791262979764210922e-03	4.330214943037452580e-01	4.330214943037452580e-03
8.196367731347410993e-03	4.167132833619223153e-01	4.167132833619223604e-03
8.611712113699683882e-03	4.004050724200993172e-01	4.004050724200992895e-03
9.019348202218391286e-03	3.850561680042658974e-01	3.850561680042659078e-03
9.432094091774180511e-03	3.687479570624428993e-01	3.687479570624429236e-03
9.839694433087027570e-03	3.537188214886060611e-01	3.537188214886060472e-03
1.025240251648424500e-02	3.377303793887795891e-01	3.377303793887796116e-03
1.065740071600871502e-02	3.246198568669219076e-01	3.246198568669218971e-03
1.107263099089999224e-02	3.099104901350815955e-01	3.099104901350816128e-03
1.148015030245664453e-02	2.961604299292308617e-01	2.961604299292308878e-03
1.189277311871501409e-02	2.814510631973904942e-01	2.814510631973905167e-03
1.230024714835322060e-02	2.686603095175293388e-01	2.686603095175293509e-03
1.271538500657078997e-02	2.568288623636577617e-01	2.568288623636577877e-03
1.312024807445167675e-02	2.430788021578070279e-01	2.430788021578070193e-03
1.353277275273386329e-02	2.302880484779458725e-01	2.302880484779458968e-03
1.394014668622006910e-02	2.181368324820777971e-01	2.181368324820777849e-03
1.435005562615605974e-02	2.063053853282062200e-01	2.063053853282062217e-03
1.475993658992431727e-02	1.954332447003242212e-01	1.954332447003242178e-03
1.516978877844092979e-02	1.839215663884491703e-01	1.839215663884491815e-03
1.558217268933962708e-02	1.714505815505845410e-01	1.714505815505845427e-03
1.598940363366561576e-02	1.602586720807060161e-01	1.602586720807060118e-03
1.640172560947098304e-02	1.513051445048032295e-01	1.513051445048032347e-03
1.681145450495653143e-02	1.420318480869038891e-01	1.420318480869038873e-03
1.721859012832650110e-02	1.321190139850114964e-01	1.321190139850115077e-03
1.763081317283167818e-02	1.225259487251156160e-01	1.225259487251156116e-03
1.804044134783962944e-02	1.132526523072162755e-01	1.132526523072162859e-03
1.844747450667729230e-02	1.042991247313134612e-01	1.042991247313134655e-03
1.885703176892333105e-02	9.790374789138288347e-02	9.790374789138288261e-04
1.926655226842102775e-02	9.022929568346618745e-02	9.022929568346619179e-04
1.968115350243829914e-02	8.287461231754601754e-02	8.287461231754601710e-04
2.008292087787311164e-02	7.615946663561891372e-02	7.615946663561891806e-04
2.050000252356280056e-02	7.072339632167791434e-02	7.072339632167791608e-04
2.090169226398248467e-02	6.624663253372652105e-02	6.624663253372652756e-04
2.131613353355598164e-02	6.017102453579246252e-02	6.017102453579246078e-04
2.172285854355953533e-02	5.537449190584452924e-02	5.537449190584453444e-04
2.213465697356880799e-02	5.057795927589659596e-02	5.057795927589659726e-04
2.254129701549176940e-02	4.706050201393477406e-02	4.706050201393477341e-04
2.295556487219654190e-02	4.450235127796254436e-02	4.450235127796254675e-04
2.336467328150667808e-02	4.194420054199031467e-02	4.194420054199031467e-04
2.376606663546567549e-02	3.842674328002849277e-02	3.842674328002849624e-04
2.418275265075960426e-02	3.522905486006319697e-02	3.522905486006319936e-04
2.458405427876592803e-02	3.267090412409097422e-02	3.267090412409097270e-04
2.499553221942850054e-02	3.139182875610485590e-02	3.139182875610485395e-04
2.540696081899270972e-02	2.915344686212915579e-02	2.915344686212915427e-04
2.582089425250918419e-02	2.851390917813609663e-02	2.851390917813609489e-04
2.620922932945900577e-02	2.691506496815345220e-02	2.691506496815345459e-04
2.663583375595422395e-02	2.499645191617427820e-02	2.499645191617427646e-04
2.703684143250150232e-02	2.403714539018469293e-02	2.403714539018469282e-04
2.744801315085349316e-02	2.275807002219857461e-02	2.275807002219857407e-04
2.785913068691783095e-02	2.211853233820551892e-02	2.211853233820552011e-04
2.826508720279677020e-02	2.147899465421246323e-02	2.147899465421246345e-04
2.867864730313395352e-02	1.860107507624370049e-02	1.860107507624370168e-04
2.908194083791217771e-02	1.796153739225064133e-02	1.796153739225064231e-04
2.949283496707664348e-02	1.732199970825758217e-02	1.732199970825758293e-04
2.989856768621098823e-02	1.732199970825758217e-02	1.732199970825758293e-04
3.030934530513128278e-02	1.540338665627841164e-02	1.540338665627841294e-04
3.071751223765796165e-02	1.412431128829229506e-02	1.412431128829229419e-04
3.112306880339217596e-02	1.316500476230270458e-02	1.316500476230270512e-04
3.153366565099999241e-02	1.220569823631311931e-02	1.220569823631312013e-04
3.194165054068250076e-02	1.156616055232006016e-02	1.156616055232006075e-04
3.234702383714633395e-02	1.060685402633047489e-02	1.060685402633047576e-04
3.275743270913496902e-02	9.967316342337415730e-03	9.967316342337416380e-05
3.316267987440679743e-02	8.688240974351299148e-03	8.688240974351298985e-05
3.357550754250237385e-02	8.368472132354771303e-03	8.368472132354772008e-05
3.397807730242789759e-02	7.409165606365184301e-03	7.409165606365184301e-05
3.438567705082078152e-02	6.130090238379069453e-03	6.130090238379069616e-05
3.479575662955557147e-02	5.170783712389481583e-03	5.170783712389481908e-05
3.520067464318989148e-02	5.170783712389481583e-03	5.170783712389481908e-05
3.561061690741561259e-02	4.531246028396424159e-03	4.531246028396424566e-05
3.581938040957076408e-02	4.798736361055344971e-03	4.798736361055345025e-05
3.601539773362706642e-02	4.851014870392952004e-03	4.851014870392952221e-05
3.642265435510672750e-02	4.211477186399894580e-03	4.211477186399894878e-05
3.648119167572899668e-02	4.257863303435495232e-03	4.257863303435495449e-05
3.683238465388754407e-02	3.891708344403365435e-03	3.891708344403365191e-05
3.714281513553829156e-02	3.981378673342281065e-03	3.981378673342281336e-05
3.723949801462490827e-02	3.252170660410308011e-03	3.252170660410307848e-05
3.764399499739848332e-02	3.891708344403365435e-03	3.891708344403365191e-05
3.780424738293980402e-02	3.568379757140542965e-03	3.568379757140542830e-05
3.805096282515083722e-02	4.211477186399894580e-03	4.211477186399894878e-05
3.846039932095141056e-02	3.252170660410308011e-03	3.252170660410307848e-05
3.846548501285902699e-02	3.789567461215114039e-03	3.789567461215114392e-05
3.886467514049830180e-02	2.932401818413778432e-03	2.932401818413778500e-05
3.912652462122336028e-02	3.549371438821634795e-03	3.549371438821634876e-05
3.927141804171960238e-02	3.252170660410308011e-03	3.252170660410307848e-05
3.967808438130191601e-02	4.211477186399894580e-03	4.211477186399894878e-05
3.978736280497961048e-02	3.590844133335616140e-03	3.590844133335616112e-05
4.008467336642841661e-02	4.531246028396424159e-03	4.531246028396424566e-05
4.044799616211156718e-02	4.038403628299006877e-03	4.038403628299007229e-05
4.049372464976785241e-02	4.211477186399894580e-03	4.211477186399894878e-05
4.110842129165741266e-02	4.123077046265053586e-03	4.123077046265053721e-05
4.176863479372734667e-02	4.185286088036027120e-03	4.185286088036026931e-05
4.242863326952099612e-02	4.320072345206467899e-03	4.320072345206467981e-05
4.308841332134497742e-02	4.295879940073312440e-03	4.295879940073312712e-05
4.374797155263033394e-02	4.183558059097944835e-03	4.183558059097944944e-05
4.440730456795007747e-02	3.932993863075968412e-03	3.932993863075968764e-05
4.506640897303661186e-02	3.687613753868241445e-03	3.687613753868241255e-05
4.572528137479925370e-02	3.678973609177828719e-03	3.678973609177828611e-05
4.638391838134167666e-02	3.345464024127889173e-03	3.345464024127889281e-05
4.704231660197936288e-02	2.975665831378215571e-03	2.975665831378215693e-05
4.770047264725708197e-02	2.640428217390193739e-03	2.640428217390193699e-05
4.835838312896632851e-02	2.210149011807629321e-03	2.210149011807629226e-05
4.901604466016276640e-02	1.771229661534652177e-03	1.771229661534652109e-05
4.967345385518368711e-02	1.308117906128518707e-03	1.308117906128518707e-05
5.033060732966535000e-02	1.133586983382177350e-03	1.133586983382177391e-05
5.098750170056057240e-02	1.016081015592561372e-03	1.016081015592561460e-05
5.164413358615594501e-02	8.467341796604678462e-04	8.467341796604677988e-06
5.230049960608941506e-02	6.255464755858966639e-04	6.255464755858966605e-06
5.295659638136757802e-02	5.184086814247762390e-04	5.184086814247762085e-06
5.361242053438310812e-02	4.803920447869593018e-04	4.803920447869592849e-06
5.426796868893216108e-02	4.458314660253074766e-04	4.458314660253075207e-06
5.492323747023174219e-02	5.546972891245105118e-04	5.546972891245105524e-06
5.557822350493709512e-02	6.722032569141264896e-04	6.722032569141264829e-06
5.623292342115897985e-02	8.450061507223853444e-04	8.450061507223853037e-06
5.688733384848120717e-02	8.726546137317065660e-04	8.726546137317065796e-06
5.754145141797780555e-02	8.709265847936240642e-04	8.709265847936240845e-06
5.819527276223048634e-02	9.867045236451575402e-04	9.867045236451575199e-06
5.884879451534592160e-02	9.659681763881663259e-04	9.659681763881663937e-06
5.950201331297309132e-02	1.081746115239699694e-03	1.081746115239699660e-05
6.015492579232058906e-02	1.254549009047958331e-03	1.254549009047958311e-05
6.080752859217398998e-02	1.340950455952087759e-03	1.340950455952087806e-05
6.145981835291303846e-02	1.278741414181114658e-03	1.278741414181114766e-05
6.211179171652907866e-02	1.207892227719728614e-03	1.207892227719728573e-05
6.276344532664222819e-02	1.074833999487369253e-03	1.074833999487369341e-05
6.341477582851876016e-02	8.605584111651286196e-04	8.605584111651286061e-06
6.406577986908824907e-02	7.326842697470170888e-04	7.326842697470171125e-06
6.471645409696097362e-02	7.586047038182558086e-04	7.586047038182558086e-06
6.536679516244503496e-02	6.583790254094657162e-04	6.583790254094657603e-06
6.601679971756373166e-02	6.238184466478140537e-04	6.238184466478140808e-06
6.666646441607264328e-02	4.924882473535374108e-04	4.924882473535374277e-06
6.731578591347704699e-02	3.594300191211781577e-04	3.594300191211781526e-06
6.796476086704893171e-02	2.488361670838925665e-04	2.488361670838925835e-06
6.861338593584438705e-02	1.555226044274328609e-04	1.555226044274328541e-06
6.926165778072067292e-02	1.261461124800288935e-04	1.261461124800288927e-06
6.990957306435342800e-02	1.296021703561940598e-04	1.296021703561940521e-06
7.055712845125396149e-02	1.416983729227721687e-04	1.416983729227721738e-06
7.120432060778628114e-02	1.278741414181114766e-04	1.278741414181114724e-06
7.185114620218434334e-02	1.175059677896159508e-04	1.175059677896159516e-06
7.249760190456915054e-02	1.175059677896159508e-04	1.175059677896159516e-06
7.314368438696598751e-02	1.555226044274328609e-04	1.555226044274328541e-06
7.378939032332136605e-02	2.004513568175801577e-04	2.004513568175801814e-06
7.443471638952041392e-02	3.110452088548657217e-04	3.110452088548657082e-06
7.507965926340373630e-02	4.337352634587294219e-04	4.337352634587294625e-06
7.572421562478465207e-02	4.389193502729772526e-04	4.389193502729772864e-06
7.636838215546629116e-02	4.078148293874905937e-04	4.078148293874905970e-06
7.701215553925859492e-02	3.611580480592607679e-04	3.611580480592607747e-06
7.765553246199551063e-02	3.473338165546000487e-04	3.473338165546000521e-06
7.829850961155186695e-02	3.369656429261045499e-04	3.369656429261045737e-06
7.894108367786067948e-02	3.697981927496737107e-04	3.697981927496737157e-06
7.958325135292988739e-02	4.129989162017384243e-04	4.129989162017384210e-06
8.022500933085970065e-02	4.389193502729772526e-04	4.389193502729772864e-06
8.086635430785936440e-02	4.441034370872249206e-04	4.441034370872249410e-06
8.150728298226429802e-02	3.404217008022697162e-04	3.404217008022697331e-06
8.214779205455303990e-02	2.643884275266358960e-04	2.643884275266358858e-06
8.278787822736430324e-02	1.572506333655154711e-04	1.572506333655154762e-06
8.342753820551380983e-02	1.226900546038637001e-04	1.226900546038637120e-06
8.406676869601148461e-02	1.382423150466070025e-04	1.382423150466070143e-06
8.470556640807816451e-02	1.416983729227721687e-04	1.416983729227721738e-06
8.534392805316261266e-02	1.572506333655154711e-04	1.572506333655154762e-06
8.598185034495861578e-02	1.175059677896159508e-04	1.175059677896159516e-06
8.661932999942160982e-02	6.912115752330350125e-05	6.912115752330350717e-07
8.725636373478586061e-02	3.456057876165175062e-05	3.456057876165175359e-07
8.789294827158118661e-02	1.382423150466069889e-05	1.382423150466069879e-07
8.852908033264990373e-02	1.900831831890846183e-05	1.900831831890846183e-07
8.916475664316367289e-02	6.566509964713832144e-05	6.566509964713832652e-07
8.979997393064038935e-02	7.603327327563384730e-05	7.603327327563384730e-07
9.043472892496103033e-02	8.640144690412937317e-05	8.640144690412937867e-07
9.082511618808729315e-02	7.988735811578347667e-05	7.988735811578348217e-07
9.106901835838643322e-02	9.331356265645971923e-05	9.331356265645971880e-07
9.150786737053179243e-02	6.410123345817357111e-05	6.410123345817357068e-07
9.170283896557421266e-02	5.184086814247762255e-05	5.184086814247762509e-07
9.219007220539533753e-02	6.314449863043963579e-05	6.314449863043963537e-07
9.233618748359544159e-02	7.776130221371643043e-05	7.776130221371642704e-07
9.287172661957500408e-02	9.567348277339339578e-05	9.567348277339340425e-07
9.296906065195158220e-02	9.849764947070748216e-05	9.849764947070748978e-07
9.355282654325414171e-02	1.693420645089062794e-04	1.693420645089062751e-06
9.360145521259120860e-02	1.814430384986716891e-04	1.814430384986716984e-06
9.423336790992675738e-02	2.501861574524237184e-04	2.501861574524237032e-06
9.423336790992675738e-02	2.160036172603234329e-04	2.160036172603234414e-06
9.486479549085131968e-02	2.056354436318279071e-04	2.056354436318279206e-06
9.491334665642164881e-02	2.650155472822997293e-04	2.650155472822997429e-06
9.549573470475537784e-02	2.384679934553970407e-04	2.384679934553970627e-06
9.559275872292673226e-02	2.195706429649378155e-04	2.195706429649378155e-06
9.612618230354355586e-02	1.555226044274328609e-04	1.555226044274328541e-06
9.627160005301335644e-02	1.492506331264936920e-04	1.492506331264936971e-06
9.675613504165134215e-02	1.036817362849552451e-04	1.036817362849552502e-06
9.694986659366038040e-02	1.157649141558060102e-04	1.157649141558060035e-06
9.738558967606178451e-02	9.331356265645971923e-05	9.331356265645971880e-07
9.762755429527844586e-02	9.615185018726036344e-05	9.615185018726037191e-07
9.801454296632210184e-02	1.123218809753681878e-04	1.123218809753681912e-06
9.830465911173424942e-02	1.301159365718150128e-04	1.301159365718150120e-06
9.864299167456053175e-02	1.555226044274328609e-04	1.555226044274328541e-06
9.898117700037448174e-02	1.932604352022546351e-04	1.932604352022546368e-06
9.927093256550294231e-02	2.211877040745711823e-04	2.211877040745711806e-06
9.965710392205014145e-02	2.056979879627957941e-04	2.056979879627957958e-06
9.989836240648937438e-02	1.676188069940109699e-04	1.676188069940109758e-06
1.003324358411405576e-01	1.918253329606537457e-04	1.918253329606537338e-06
1.010071687255776063e-01	1.325077736411498647e-04	1.325077736411498715e-06
1.016812985468695529e-01	6.649307052750840939e-05	6.649307052750840897e-07
1.023548212801254353e-01	3.157224931521981790e-05	3.157224931521981768e-07
1.030277329040787532e-01	2.918041224588498639e-05	2.918041224588498470e-07
1.037000294011117402e-01	4.113959759255915747e-05	4.113959759255916023e-07
1.043717067572791507e-01	5.262041552536636090e-05	5.262041552536635751e-07
1.050427609623324071e-01	4.353143466189399576e-05	4.353143466189399851e-07
1.057131880097433585e-01	3.300735155682072087e-05	3.300735155682072065e-07
1.063829838967284280e-01	7.175511208004504683e-06	7.175511208004504260e-08
1.070521446242722330e-01	1.148081793280720682e-05	1.148081793280720655e-07
1.077206661971517321e-01	3.731265828162342300e-05	3.731265828162342427e-07
1.083885446239598732e-01	5.644735483630210215e-05	5.644735483630209877e-07
1.090557759171295604e-01	7.701715363258167073e-05	7.701715363258167623e-07
1.097223560929573849e-01	7.319021432164594303e-05	7.319021432164594557e-07
1.103882811716274254e-01	4.783674138669669789e-05	4.783674138669670212e-07
1.110535471772350485e-01	2.583184034881621618e-05	2.583184034881621639e-07
1.117181501378105568e-01	2.965877965975195066e-05	2.965877965975195235e-07
1.123820860853430442e-01	5.788245707790300512e-05	5.788245707790300174e-07
1.130453510558039332e-01	1.095461377755354307e-04	1.095461377755354239e-06
1.137079410891707193e-01	1.478155308848928026e-04	1.478155308848928153e-06
1.143698522294506609e-01	1.315510388134159023e-04	1.315510388134159150e-06
1.150310805247043017e-01	1.014138917397969941e-04	1.014138917397969950e-06
1.156916220270691603e-01	7.127674466617807240e-05	7.127674466617807494e-07
1.163514727927831838e-01	2.870204483201801873e-05	2.870204483201801704e-07
1.170106288822083951e-01	3.492082121228859149e-05	3.492082121228859128e-07
1.176690863598544023e-01	4.161796500642612513e-05	4.161796500642612788e-07
1.183268412944017967e-01	7.845225587418258725e-05	7.845225587418258979e-07
1.189838897587258137e-01	8.945470639312282980e-05	8.945470639312283530e-07
1.196402278299195931e-01	8.467103225445313968e-05	8.467103225445313756e-07
1.202958515893176872e-01	4.927184362829759408e-05	4.927184362829759451e-07
1.209507571225194728e-01	2.104816621014654639e-05	2.104816621014654777e-07
1.216049405194124383e-01	7.175511208004504683e-06	7.175511208004504260e-08
1.222583978741956096e-01	4.783674138669669789e-06	4.783674138669669948e-08
1.229111252854029057e-01	1.482938982987597533e-05	1.482938982987597618e-07
1.235631188559263016e-01	2.822367741815105108e-05	2.822367741815104938e-07
1.242143746930392256e-01	2.296163586561441363e-05	2.296163586561441310e-07
1.248648889084196661e-01	1.339428758827507405e-05	1.339428758827507321e-07
1.255146576181735141e-01	6.218776380270570217e-06	6.218776380270570270e-08
1.261636769428576832e-01	9.567348277339339578e-06	9.567348277339339896e-08
1.268119430075032861e-01	2.439673810721531321e-05	2.439673810721531342e-07
1.274594519416388239e-01	4.353143466189399576e-05	4.353143466189399851e-07
1.281061998793131818e-01	5.979592673337087575e-05	5.979592673337087236e-07
1.287521829591188050e-01	5.262041552536636090e-05	5.262041552536635751e-07
1.293973973242147080e-01	3.731265828162342300e-05	3.731265828162342427e-07
1.300418391223495118e-01	2.152653362401351405e-05	2.152653362401351543e-07
1.306855045058844256e-01	9.567348277339339578e-06	9.567348277339339896e-08
1.313283896318163113e-01	1.913469655467867916e-05	1.913469655467867979e-07
1.319704906618005269e-01	4.831510880056365877e-05	4.831510880056365919e-07
1.326118037621738521e-01	7.271184690777898892e-05	7.271184690777898850e-07
1.332523251039773871e-01	8.562776708218707499e-05	8.562776708218707287e-07
