Q(Å⁻¹)	Intensity	Error
1.254566145630767356e-03	7.508007243571390710e-01	7.508007243571391057e-03
1.681536486362529429e-03	7.613355736722118294e-01	7.613355736722118676e-03
2.100596706121803537e-03	7.477173538258983232e-01	7.477173538258983544e-03
2.524923999351118449e-03	7.312727109926139279e-01	7.312727109926139141e-03
2.943975257781610878e-03	7.155989107921397752e-01	7.155989107921398133e-03
3.365656335515916989e-03	6.999251105916656224e-01	6.999251105916656258e-03
3.787330851730976323e-03	6.847652054797316312e-01	6.847652054797316069e-03
4.208997984350743189e-03	6.667788773808267511e-01	6.667788773808267476e-03
4.630656911313564897e-03	6.503342345475423558e-01	6.503342345475423940e-03
5.052306810573788109e-03	6.367160147012288496e-01	6.367160147012288808e-03
5.473946860103357827e-03	6.210422145007546968e-01	6.210422145007546933e-03
5.895576237893422437e-03	6.061392569330907865e-01	6.061392569330907587e-03
6.319829195860414590e-03	5.907224042768866035e-01	5.907224042768866555e-03
6.741434684672004997e-03	5.758194467092226931e-01	5.758194467092227209e-03
7.163027030711721123e-03	5.632290170399892881e-01	5.632290170399892847e-03
7.579335771845738777e-03	5.493538496494057011e-01	5.493538496494056872e-03
8.006169006839343807e-03	5.339369969932016291e-01	5.339369969932016707e-03
8.425082368431856608e-03	5.208326722354280625e-01	5.208326722354280659e-03
8.849248549252780940e-03	5.061866622120342329e-01	5.061866622120342156e-03
9.265494034301430606e-03	4.935962325428008279e-01	4.935962325428008661e-03
9.694893376325309023e-03	4.797210651522171854e-01	4.797210651522171819e-03
1.011110224511188073e-02	4.661028453059036236e-01	4.661028453059036687e-03
1.053519403546072410e-02	4.517137828267797084e-01	4.517137828267797292e-03
1.095399719768178765e-02	4.388664056132763891e-01	4.388664056132763822e-03
1.137541305170636750e-02	4.257620808555028780e-01	4.257620808555028641e-03
1.179680672878112395e-02	4.129147036419995032e-01	4.129147036419995170e-03
1.222081090007178482e-02	4.003242739727661537e-01	4.003242739727661675e-03
1.263952426601185584e-02	3.867060541264525364e-01	3.867060541264525243e-03
1.306084648324687229e-02	3.736017293686790808e-01	3.736017293686790929e-03
1.348477626061287890e-02	3.599835095223654635e-01	3.599835095223654496e-03
1.390341370801170297e-02	3.481639224859423565e-01	3.481639224859423530e-03
1.432465707291359983e-02	3.350595977281688453e-01	3.350595977281688349e-03
1.474850501810947602e-02	3.216983254261253089e-01	3.216983254261253193e-03
1.516969152627034231e-02	3.080801055798116916e-01	3.080801055798117194e-03
1.558821632303939581e-02	2.960035709991185038e-01	2.960035709991184951e-03
1.600934305447295272e-02	2.831561937856150735e-01	2.831561937856150613e-03
1.643307032200504864e-02	2.700518690278415623e-01	2.700518690278415866e-03
1.685150206329235137e-02	2.572044918143381875e-01	2.572044918143381962e-03
1.727516403528532238e-02	2.448710096893749188e-01	2.448710096893749310e-03
1.769352966071355282e-02	2.335653177414919179e-01	2.335653177414919162e-03
1.811449212813953658e-02	2.212318356165286493e-01	2.212318356165286510e-03
1.853804996236280492e-02	2.083844584030252467e-01	2.083844584030252606e-03
1.895894075048238855e-02	1.963079238223320588e-01	1.963079238223320797e-03
1.937716435723592714e-02	1.852591794187191110e-01	1.852591794187191058e-03
1.980061062197011404e-02	1.739534874708361378e-01	1.739534874708361344e-03
2.022138806445977766e-02	1.636755857000334047e-01	1.636755857000334134e-03
2.064212608431868767e-02	1.521129462078803229e-01	1.521129462078803360e-03
2.106282386129653891e-02	1.413211493485374837e-01	1.413211493485374897e-03
2.148085159997206728e-02	1.320710377548150183e-01	1.320710377548150192e-03
2.190146669506858740e-02	1.228209261610925668e-01	1.228209261610925702e-03
2.232203909213508614e-02	1.140847096559102630e-01	1.140847096559102682e-03
2.274519613817091446e-02	1.050915456064578646e-01	1.050915456064578602e-03
2.316568039979090277e-02	9.661227664554561390e-02	9.661227664554562083e-04
2.358349189630618709e-02	8.941774540598371179e-02	8.941774540598371613e-04
2.400651261532536773e-02	8.350795188777214439e-02	8.350795188777214613e-04
2.442685892999441402e-02	7.708426328102044311e-02	7.708426328102044008e-04
2.484190418685022425e-02	7.168836485134900960e-02	7.168836485134900613e-04
2.526740787570449023e-02	6.577857133313744220e-02	6.577857133313744697e-04
2.568498276651662304e-02	6.115351553627620951e-02	6.115351553627621168e-04
2.610775978109224418e-02	5.652845973941498375e-02	5.652845973941498722e-04
2.652260886302328091e-02	5.395898429671430740e-02	5.395898429671430697e-04
2.695053323043310883e-02	5.087561376547349024e-02	5.087561376547349067e-04
2.736527904513954418e-02	4.727834814569253918e-02	4.727834814569253832e-04
2.778784625955666929e-02	4.368108252591158119e-02	4.368108252591158054e-04
2.820511035995507121e-02	4.239634480456123955e-02	4.239634480456124042e-04
2.862756773098146593e-02	4.008381690613063014e-02	4.008381690613063361e-04
2.904472172565420243e-02	3.777128900770001380e-02	3.777128900770001596e-04
2.946706595888243241e-02	3.520181356499933051e-02	3.520181356499933029e-04
2.988410659477884132e-02	3.314623321083878804e-02	3.314623321083878609e-04
3.030633439668373175e-02	3.160454794521837946e-02	3.160454794521837794e-04
3.072325842163717291e-02	2.929202004678776658e-02	2.929202004678776571e-04
3.114536649960150325e-02	2.775033478116735799e-02	2.775033478116735756e-04
3.156217066235467855e-02	2.595170197127688247e-02	2.595170197127688138e-04
3.197891405978822016e-02	2.492391179419660777e-02	2.492391179419660928e-04
3.240345721390486960e-02	2.286833144003606530e-02	2.286833144003606508e-04
3.281745544518727825e-02	2.184054126295579060e-02	2.184054126295579027e-04
3.324448949501573186e-02	2.004190845306531507e-02	2.004190845306531681e-04
3.365836014760278244e-02	1.875717073171497343e-02	1.875717073171497397e-04
3.408002327612550536e-02	1.695853792182449790e-02	1.695853792182449779e-04
3.449638233125007503e-02	1.644464283328436055e-02	1.644464283328436174e-04
3.491791093097898480e-02	1.541685265620408585e-02	1.541685265620408693e-04
3.533675305536800038e-02	1.361821984631361032e-02	1.361821984631361076e-04
3.575552628894874962e-02	1.284737721350340603e-02	1.284737721350340668e-04
3.617422981530140497e-02	1.207653458069320174e-02	1.207653458069320260e-04
3.658763034420604160e-02	1.156263949215306612e-02	1.156263949215306655e-04
3.701142448132406504e-02	1.130569194788299744e-02	1.130569194788299717e-04
3.742991398884024101e-02	1.079179685934286183e-02	1.079179685934286248e-04
3.784833052482381582e-02	1.027790177080272448e-02	1.027790177080272507e-04
3.826667327355032927e-02	9.507059137992520184e-03	9.507059137992520997e-05
3.868232747688718498e-02	1.002095422653265754e-02	1.002095422653265840e-04
3.910052067839945439e-02	9.507059137992520184e-03	9.507059137992520997e-05
3.952125064111040864e-02	8.736216505182315892e-03	8.736216505182315567e-05
3.993929008646512208e-02	7.965373872372111599e-03	7.965373872372111491e-05
4.035463965172975120e-02	8.479268960912248951e-03	8.479268960912248897e-05
4.077252304913847603e-02	8.993164049452384567e-03	8.993164049452384947e-05
4.119032695842721192e-02	9.250111593722453243e-03	9.250111593722452972e-05
4.161066108338049019e-02	8.479268960912248951e-03	8.479268960912248897e-05
4.202569305468077665e-02	7.451478783831975983e-03	7.451478783831976796e-05
4.244586310719921513e-02	7.708426328102042924e-03	7.708426328102043466e-05
4.286073142613783249e-02	8.993164049452384567e-03	8.993164049452384947e-05
4.328073412965095096e-02	8.222321416642180275e-03	8.222321416642180871e-05
4.369543556100140280e-02	7.965373872372111599e-03	7.965373872372111491e-05
4.411266025548539471e-02	7.451478783831975983e-03	7.451478783831976796e-05
4.453240579478263267e-02	7.451478783831975983e-03	7.451478783831976796e-05
4.494945713111768437e-02	7.708426328102042924e-03	7.708426328102043466e-05
4.536381508684326352e-02	7.708426328102042924e-03	7.708426328102043466e-05
4.578069090305281197e-02	7.194531239561908174e-03	7.194531239561908771e-05
4.620008210112654112e-02	7.451478783831975983e-03	7.451478783831976796e-05
4.661417396752665088e-02	6.166741062481635206e-03	6.166741062481635315e-05
4.703077959087306747e-02	6.680636151021771690e-03	6.680636151021771365e-05
4.744989644737197809e-02	6.937583695291839499e-03	6.937583695291839390e-05
4.786371495881652088e-02	5.909793518211567398e-03	5.909793518211567290e-05
4.828264483518630856e-02	5.652845973941498722e-03	5.652845973941498587e-05
4.869627707589592458e-02	5.652845973941498722e-03	5.652845973941498587e-05
4.911241613634444864e-02	5.395898429671430914e-03	5.395898429671431239e-05
4.953105941754693681e-02	5.652845973941498722e-03	5.652845973941498587e-05
4.994440620463877489e-02	4.625055796861226622e-03	4.625055796861226486e-05
5.036285434125347543e-02	4.625055796861226622e-03	4.625055796861226486e-05
5.077600679642073345e-02	5.138950885401362238e-03	5.138950885401362536e-05
5.119425652530501525e-02	4.111160708321090138e-03	4.111160708321090436e-05
5.160721142670186834e-02	4.625055796861226622e-03	4.625055796861226486e-05
5.202525948626034874e-02	4.111160708321090138e-03	4.111160708321090436e-05
5.243801361358149671e-02	3.854213164051021462e-03	3.854213164051021733e-05
5.285585674379141702e-02	4.111160708321090138e-03	4.111160708321090436e-05
5.326840687829727944e-02	4.368108252591157946e-03	4.368108252591157783e-05
5.368863549627847509e-02	4.368108252591157946e-03	4.368108252591157783e-05
5.409838474527572244e-02	4.111160708321090138e-03	4.111160708321090436e-05
5.451580824313803642e-02	3.597265619780954087e-03	3.597265619780954385e-05
5.492794074218270567e-02	3.854213164051021462e-03	3.854213164051021733e-05
5.534514954031832107e-02	4.368108252591157946e-03	4.368108252591157783e-05
5.575706839997391501e-02	4.111160708321090138e-03	4.111160708321090436e-05
5.617146958103674814e-02	3.597265619780954087e-03	3.597265619780954385e-05
5.658835022984119723e-02	3.854213164051021462e-03	3.854213164051021733e-05
5.699735431879975750e-02	4.111160708321090138e-03	4.111160708321090436e-05
5.741660042659436219e-02	4.368108252591157946e-03	4.368108252591157783e-05
5.782797113799444805e-02	4.368108252591157946e-03	4.368108252591157783e-05
5.824440287716360631e-02	3.854213164051021462e-03	3.854213164051021733e-05
5.865296324301803171e-02	3.597265619780954087e-03	3.597265619780954385e-05
5.907175112617914919e-02	4.625055796861226622e-03	4.625055796861226486e-05
5.948266888192737384e-02	4.882003341131294430e-03	4.882003341131294511e-05
5.989863872181314108e-02	4.625055796861226622e-03	4.625055796861226486e-05
6.030932519221731541e-02	3.854213164051021462e-03	3.854213164051021733e-05
6.072247738603433337e-02	4.111160708321090138e-03	4.111160708321090436e-05
6.113809228565304094e-02	4.882003341131294430e-03	4.882003341131294511e-05
6.154842582370736309e-02	4.882003341131294430e-03	4.882003341131294511e-05
6.196380004478434234e-02	4.882003341131294430e-03	4.882003341131294511e-05
6.237389429439203076e-02	4.625055796861226622e-03	4.625055796861226486e-05
